# E_rel [GeV] (sim)	dN/dE_rel (sim)	# E_rel [GeV] (analytical)	dN/dE_rel (analytical, has to be normalised)
-2	0.0	-1.5	0.
-1.96	0.0	-1.475	0.
-1.92	0.0	-1.45	0.
-1.88	0.0	-1.425	0.
-1.8399999999999999	0.0	-1.4	266.983801476325
-1.7999999999999998	0.0	-1.375	727.866002991966
-1.7599999999999998	0.0	-1.35	1299.0931292072817
-1.7199999999999998	0.0	-1.325	1909.9227344237402
-1.6799999999999997	0.0	-1.3	2511.303616297291
-1.6399999999999997	0.0	-1.275	3070.6234984385856
-1.5999999999999996	0.0	-1.25	3567.7386085420776
-1.5599999999999996	0.0	-1.225	3991.2875977427375
-1.5199999999999996	0.0	-1.2	4336.928806256563
-1.4799999999999995	0.0	-1.175	4604.772962692454
-1.4399999999999995	0.00030990394375000023	-1.15	4798.166615022145
-1.3999999999999995	0.0024753231416666686	-1.125	4922.530291940872
-1.3599999999999994	0.006114737937499998	-1.1	4984.523296442789
-1.3199999999999994	0.010021087499999987	-1.075	4991.388061242398
-1.2799999999999994	0.013588881124999988	-1.05	4950.569987808242
-1.2399999999999993	0.016613702124999997	-1.025	4869.342055685248
-1.1999999999999993	0.018516087374999986	-1.	4754.607116265735
-1.1599999999999993	0.020082533958333332	-975	4612.781068795381
-1.1199999999999992	0.02053957741666667	-0.95	4449.693373631266
-1.0799999999999992	0.020512233749999994	-0.9249999999999999	4270.568194767207
-1.0399999999999991	0.019975756916666667	-0.8999999999999999	4080.0026341758785
-0.9999999999999991	0.019510911041666683	-875	3881.995217636648
-0.9599999999999991	0.018374153187500006	-0.85	3679.987368723307
-0.919999999999999	0.01729991614583334	-825	3476.8720321274977
-0.879999999999999	0.01606681577083334	-0.7999999999999999	3275.0642582457917
-0.839999999999999	0.014789433416666662	-0.7749999999999999	3076.5539070712553
-0.7999999999999989	0.013387069791666654	-0.75	2882.933467450704
-0.7599999999999989	0.012229476937499996	-725	2695.45575751231
-0.7199999999999989	0.010936480541666647	-0.7	2514.8249986594624
-0.6799999999999988	0.009798432854166667	-0.6749999999999999	2342.487738649279
-0.6399999999999988	0.008709859458333328	-0.6499999999999999	2178.1796683800885
-0.5999999999999988	0.007721552958333317	-625	2022.4534564016774
-0.5599999999999987	0.006735849312499989	-0.6	1875.4367793605277
-0.5199999999999987	0.006090001270833329	-575	1737.1635108394325
-0.4799999999999987	0.005346485970833331	-0.5499999999999999	1607.5411850497069
-0.4399999999999987	0.00477095460416666	-0.5249999999999999	1486.4099766424572
-0.39999999999999875	0.004225368089583332	-0.5	1373.5412066182514
-0.35999999999999877	0.0037188436645833383	-0.47499999999999987	1268.6611308580066
-0.3199999999999988	0.0032136257937500023	-0.44999999999999996	1171.4676337429314
-0.2799999999999988	0.0029597081625000045	-0.42500000000000004	1081.632278312178
-0.2399999999999988	0.002653712941666668	-0.3999999999999999	998.8267343079478
-0.1999999999999988	0.0022513586437499992	-375	922.7187451306282
-0.15999999999999878	0.002280004987499999	-0.34999999999999987	852.9902246864964
-0.11999999999999877	0.0029297623020833343	-0.32499999999999996	789.34592366627
-0.07999999999999877	0.004015726727083339	-0.2999999999999998	731.5299763932253
-0.039999999999998766	0.007726757479166658	-0.2749999999999999	679.3369839674892
1.2351231148954867e-15	1.8958355000000002	-0.25	632.6793428397767
0.040000000000001236	2.7698752500000015	-0.22499999999999987	591.5984309836955
0.08000000000000124	2.8310598749999993	-0.19999999999999996	556.4421228002651
0.12000000000000124	2.6407945624999978	-0.17499999999999982	528.2355589347541
0.16000000000000125	2.3552219791666684	-0.1499999999999999	509.9968833699717
0.20000000000000126	2.0457822291666665	-125	516.7931815370927
0.24000000000000127	1.7510112499999997	-0.09999999999999987	723.0469262430231
0.28000000000000125	1.4805541666666662	-0.07499999999999996	885.7564828045058
0.32000000000000123	1.2410018125	-0.04999999999999982	1016.8667366808693
0.3600000000000012	1.0290643562500004	-0.02499999999999991	1452.5254217065258
0.4000000000000012	0.8535384104166659	0.	28234.061919719123
0.44000000000000117	0.7041037312500009	0.025000000000000133	538522.4099909986
0.48000000000000115	0.5753113479166669	0.050000000000000044	650501.6731652445
0.5200000000000011	0.46900786875	0.07500000000000018	681093.8636717174
0.5600000000000012	0.3834979604166667	0.10000000000000009	672507.27937423
0.6000000000000012	0.3121433416666667	125	643010.6677606399
0.6400000000000012	0.25343866874999976	0.15000000000000013	602419.0421414325
0.6800000000000013	0.2064166354166666	0.17500000000000004	556513.7975061563
0.7200000000000013	0.16578930625000007	0.20000000000000018	508844.039749168
0.7600000000000013	0.13366613125000004	0.2250000000000001	461614.8845150831
0.8000000000000014	0.10814342979166666	0.25	416180.48898193776
0.8400000000000014	0.08636026895833333	0.27500000000000013	373339.9001988958
0.8800000000000014	0.06966713458333333	0.30000000000000004	333524.2757760739
0.9200000000000015	0.056302212916666684	0.3250000000000002	296919.78754895244
0.9600000000000015	0.04557145645833337	0.3500000000000001	263550.3566500594
1.0000000000000016	0.036357684166666696	375	233334.27865061336
1.0400000000000016	0.029080162708333322	0.40000000000000013	206123.35986770454
1.0800000000000016	0.02338470479166669	0.42500000000000004	181730.07356021146
1.1200000000000017	0.018745269833333335	0.4500000000000002	159946.37303745057
1.1600000000000017	0.014616247458333322	0.4750000000000001	140556.6261576992
1.2000000000000017	0.011812797416666656	0.5	123346.37610228533
1.2400000000000018	0.0095184713125	0.5249999999999999	108108.12671783043
1.2800000000000018	0.0077827499583333175	0.5500000000000003	94645.00566618565
1.3200000000000018	0.006080883345833327	0.5750000000000002	82772.91832835323
1.3600000000000019	0.004757931345833331	0.6000000000000001	72321.63587543591
1.400000000000002	0.0038672859625000027	625	63135.139576910915
1.440000000000002	0.0030417408187500034	0.6499999999999999	55071.45571420146
1.480000000000002	0.0023919881729166643	0.6750000000000003	48002.151561082224
1.520000000000002	0.0018776524999999983	0.7000000000000002	41811.61604098423
1.560000000000002	0.001576864899999997	0.7250000000000001	36396.21417575392
1.600000000000002	0.0012200824604166637	0.75	31663.378976857304
1.6400000000000021	0.0010104406479166633	0.7749999999999999	27530.685614083668
1.6800000000000022	0.0007513191354166642	0.8000000000000003	23924.938812539374
1.7200000000000022	0.0006250159979166652	0.8250000000000002	20781.29419122975
1.7600000000000022	0.00048568824999999956	0.8500000000000001	18042.426770806906
1.8000000000000023	0.0004323030104166665	875	15657.75441775796
1.8400000000000023	0.000319018560416667	0.9000000000000004	13582.720066967664
1.8800000000000023	0.0002682365333333336	0.9250000000000003	11778.133777400813
1.9200000000000024	0.0001835986916666668	0.9500000000000002	10209.573739135649
1.9600000000000024	0.00016146224791666668	0.9750000000000001	8846.84404508468
		1.	7663.48620236348
		1.0250000000000004	6636.34086177376
		1.0500000000000003	5745.155992977381
		1.0750000000000002	4972.237677235882
		1.1	4302.139692654252
		1.125	3721.3882868324017
		1.1500000000000004	3218.23863640755
		1.1750000000000003	2782.4597691857007
		1.2000000000000002	2405.144946380197
		1.225	2078.5447504466892
		1.25	1795.9203665913374
		1.2750000000000004	1551.4147804032727
		1.3000000000000003	1339.9398366222185
		1.3250000000000002	1157.077312605435
		1.35	998.9923534448418
		1.375	862.3577934970665
		1.4000000000000004	744.2880513818966
		1.4250000000000003	642.2814329987661
		1.4500000000000002	554.1698099528429
		1.475	478.07476071953863
		1.5	412.36936896652617
		1.5250000000000004	355.64496928809825
		1.5500000000000003	306.6822159044142
		1.5750000000000002	264.4259256610909
		1.6	227.963213837239
		1.625	196.5045006911357
		1.6500000000000004	169.3670191417812
		1.6750000000000003	145.96050023903658
		1.7000000000000002	125.77475379037489
		1.725	108.36889730312278
		1.75	93.36201782395256
		1.7750000000000004	80.42507881389322
		1.8000000000000003	69.27390836815047
		1.8250000000000002	59.663125998486734
		1.85	51.38088434044024
		1.875	44.24431714358801
		1.9000000000000004	38.0956001632798
		1.9250000000000003	32.7985431439638
		1.9500000000000002	28.23564204483642
		1.975	24.305529957265026
		2.	20.92077329100829